390.0, 1.0
0.04167767503
0.04237204891
0.04201300681
0.04191308471
0.0419181655
0.04138468313
0.04100531789
0.04118991972
0.04305118044
0.04253294042
0.04361176032
0.04357788843
0.04356095248
0.04462114284
0.07370863395
0.06659384209
0.04307997155
0.04469396742
0.04560681503
0.0421789791
0.04232293466
0.04301561494
0.04235680656
0.04205365308
0.04430952139
0.04349151509
0.04511736612
0.04549673136
0.04624021949
0.04680418657
0.0476120313
0.04838769773
0.04877383735
0.0489211801
0.04988991634
0.05188835823
0.05256240897
0.05447447753
0.05636791654
0.05842055347
0.06066964739
0.06231243437
0.06787758697
0.07466212783
0.08021373167
0.1204704806
0.3416031569
0.1118704061
0.0842275514
0.08800257426
0.08943704908
0.09266842801
0.09506825187
0.09863496257
0.1021898181
0.1060969414
0.1077312604
0.1089506486
0.1096246994
0.1115316872
0.1131473766
0.1150611388
0.1143972496
0.1134640789
0.114144904
0.1127747858
0.1129373709
0.1122904176
0.1093825153
0.1075127866
0.1056362836
0.103126376
0.1014954442
0.0998357213
0.09723774684
0.09420282492
0.09294956475
0.09320191037
0.09081055448
0.08904752227
0.08645462859
0.08492869966
0.08544863327
0.08442062121
0.08342478745
0.0815432036
0.08063374318
0.08073535887
0.07975307387
0.07899603699
0.08029163703
0.08367713308
0.09304609965
0.1124445348
0.1355079091
0.1694001287
0.1979490567
0.2068743014
0.2018612607
0.1977627612
0.1850624936
0.170477255
0.1602648782
0.1486739153
0.1383395996
0.1301426007
0.1241032415
0.1209429936
0.112100735
0.09179792027
0.08109440098
0.07548352132
0.06692070589
0.06235138705
0.0622057379
0.05822409647
0.05603089117
0.05413237137
0.05381228195
0.05510280121
0.05448125191
0.05385800901
0.05426447177
0.05233546726
0.05350912848
0.05240490465
0.05219828608
0.05264878231
0.05081123192
0.05241675981
0.05079598957
0.0512752769
0.0512447922
0.05039630119
0.05108898147
0.04976289672
0.05127188971
0.0498678996
0.05060461335
0.04872133591
0.05137011821
0.05113470853
0.05175964502
0.05551095756
0.05995664397
0.06410087051
0.07485689124
0.09235511296
0.1325373438
0.187230295
0.2740609017
0.4500287911
0.7334891441
0.9412051621
0.963074552
0.9695186804
1
0.7477322765
0.3669969177
0.2673441046
0.2624360668
0.2344765098
0.2117332249
0.1845832063
0.1407394235
0.09278359245
0.07164244826
0.05723334349
0.05647630661
0.05291975748
0.05296717813
0.05130406801
0.04995088575
0.05028960471
0.04724621482
0.04811841615
0.04562036378
0.04734783051
0.04715984148
0.04660095519
0.04892287369
0.04729871626
0.04984927006
0.05027097517
0.05302984114
0.05980760763
0.07885546862
0.117664194
0.1387155777
0.1581512719
0.1804609965
0.180024049
0.1803847847
0.2041374522
0.2476086441
0.277407445
0.2729397419
0.2665684382
0.2571503573
0.238613962
0.202553941
0.1632439115
0.1453544694
0.1392270433
0.1279172171
0.1072993937
0.08398875453
0.06916302544
0.07275005928
0.07772414728
0.08305727738
0.0836381804
0.07441994377
0.06642956339
0.06632286692
0.06611963554
0.07262303966
0.08109778817
0.09061748467
0.1340226264
0.2469786268
0.4665599702
0.6729837754
0.7019628764
0.5461013447
0.3745672865
0.2754310199
0.2146038682
0.1846492565
0.1774751888
0.1879856383
0.2089879077
0.2168834468
0.2027537852
0.1801713918
0.1580107035
0.1376028859
0.1229990177
0.1120821055
0.1039308336
0.1026911222
0.1220133455
0.1290519256
0.1143786201
0.09302747011
0.0702553941
0.05370897267
0.04887206585
0.0514056837
0.052357484
0.05212038072
0.05608339261
0.05619516987
0.05221691563
0.0507214714
0.05177996816
0.05083832944
0.04871286793
0.05148358907
0.05385123463
0.05515868984
0.06066456661
0.06868035091
0.06774040579
0.0575602073
0.05481997087
0.05283846493
0.04956305254
0.04729702266
0.04844189276
0.04922602717
0.04904142533
0.05004403347
0.05282322257
0.05328218677
0.05186295431
0.05219659249
0.05339396403
0.0533363818
0.05393930156
0.05672018426
0.05729939369
0.05363784168
0.05020492497
0.05079598957
0.05160044711
0.05032008942
0.04688717271
0.04900755343
0.05124987298
0.0506537276
0.04840463368
0.04900077905
0.05032008942
0.05014056837
0.04735121769
0.04778477797
0.05031162145
0.05112962775
0.05089083088
0.05084002303
0.05140399011
0.05070453545
0.05057412865
0.05531111337
0.07741591302
0.1337685872
0.2049131186
0.2660874572
0.2825051655
0.2544185889
0.1704416895
0.09645869322
0.05066896996
0.04963079633
0.0566761508
0.07523286929
0.1101039867
0.14358805
0.1645784642
0.16126918
0.1327846086
0.1006164685
0.07994614368
0.06903092504
0.0630220506
0.05941638722
0.05764488704
0.05630186634
0.05164786776
0.04575585137
0.0397893168
0.04203163635
0.04490736036
0.04455001186
0.04537648613
0.04908207161
0.06302882498
0.07551569962
0.08400060969
0.08390238119
0.07873352979
0.06641601463
0.05610710294
0.04877383735
0.04828608204
0.05513497951
0.07834230939
0.1168021543
0.1672814416
0.1935067574
0.2031128273
0.1790688616
0.1422534973
0.09277681807
0.06598245436
0.05392913999
0.06531856519
0.09307319717
0.1525200691
0.2410239474
0.3586085425
0.4431273922
0.4988703723
0.4529519358
0.3693560952
0.231148596
0.1270534837
0.08364326119
0.07972597636
0.108242726
0.2064966297
0.3401551333
0.5374233648
0.7245520442
0.8210988043
0.8403702198
0.7052619991
0.5248128578
0.2911966941
0.1821274938
0.1749652813
0.2188852759
0.2867679436
0.3156945432
0.3231158758
0.2575652881
0.176638553
0.1103664939
0.05629678556
0.04595738915
